循环号,最大容量(Ah),ICA峰值,ICA峰值位置(V),2.8~3.4V放电面积(Ah),恒流充电时间(s),恒压充电时间(s),恒流与恒压时间比值,2.8~3.4V放电时间(s),3.3~3.6V充电时间(s),弛豫末端电压,放电容量(Ah),累计放电容量(Ah)
1,3.4544,7293.1111,3.815,1.127,4877,3275,1.489160305,1160,8,4.1921,3.4544,3.4544
2,3.4625,7293.1111,3.6169,1.1007,6614,3004,2.201731025,1133,858,4.1924,3.4317,6.886100000000001
3,3.4366,7292.8889,3.5989,1.091,6584,2909,2.263320729,1123,868,4.1924,3.4163,10.3024
4,3.4205,7293.0,3.5676,1.0803,6559,2857,2.295764788,1112,866,4.1926,3.4073,13.709700000000002
5,3.4027,7293.1111,3.5858,1.1028,6581,2702,2.435603257,1135,873,4.1918,3.3748,17.084500000000002
6,3.3761,7293.5556,3.6597,1.1008,6387,3200,1.9959375,1133,777,4.1919,3.3661,20.4506
7,3.3676,7293.7778,3.6562,1.1007,6371,3186,1.999686127,1133,775,4.1918,3.3588,23.8094
8,3.36,7293.7778,3.62,1.0998,6357,3175,2.002204724,1132,770,4.1918,3.3523,27.1617
9,3.3534,7293.7778,3.6524,1.0988,6343,3174,1.998424701,1131,767,4.1917,3.3456,30.5073
10,3.3466,7293.7778,3.6634,1.1008,6328,3181,1.989311537,1133,763,4.1917,3.3404,33.8477
11,3.3414,7293.5556,3.6372,1.0998,6316,3183,1.984291549,1132,760,4.1916,3.3348,37.182500000000005
12,3.3354,7293.5556,3.6543,1.1028,6300,3199,1.969365427,1135,757,4.1916,3.3298,40.5123
13,3.3305,7293.7778,3.6664,1.1018,6288,3212,1.95765878,1134,752,4.1915,3.3253,43.8376
14,3.3256,7293.4444,3.6172,1.1027,6276,3216,1.951492537,1135,749,4.1914,3.3198,47.1574
15,3.3204,7293.7778,3.6594,1.1027,6264,3229,1.93991948,1135,746,4.1914,3.3149,50.472300000000004
16,3.3153,7293.7778,3.6592,1.1038,6251,3238,1.930512662,1136,743,4.1913,3.3106,53.782900000000005
17,3.3109,7293.5556,3.65,1.1037,6238,3252,1.918204182,1136,738,4.1913,3.3055,57.08840000000001
18,3.3057,7293.7778,3.6609,1.1057,6224,3272,1.902200489,1138,735,4.1912,3.3014,60.38980000000001
19,3.3014,7294.0,3.6676,1.1057,6211,3281,1.893020421,1138,730,4.1911,3.2968,63.686600000000006
20,3.2973,7293.7778,3.6749,1.1056,6199,3304,1.876210654,1138,726,4.1911,3.293,66.9796
21,3.2931,7293.7778,3.6688,1.1056,6189,3315,1.866968326,1138,724,4.191,3.2887,70.26830000000001
22,3.289,7293.5556,3.6536,1.1047,6176,3334,1.852429514,1137,720,4.191,3.2845,73.5528
23,3.2847,7293.7778,3.6675,1.1066,6164,3360,1.83452381,1139,716,4.191,3.2808,76.8336
24,3.2807,7293.7778,3.6727,1.1057,6151,3379,1.820361054,1138,711,4.1908,3.2767,80.11030000000001
25,3.2768,7293.7778,3.6816,1.1066,6139,3399,1.806119447,1139,708,4.1907,3.2728,83.38310000000001
26,3.2729,7293.3333,3.6605,1.1066,6127,3418,1.792568754,1139,703,4.1907,3.269,86.65210000000002
27,3.2689,7293.5556,3.6743,1.1076,6116,3435,1.780494905,1140,700,4.1906,3.2655,89.91760000000002
28,3.2655,7293.5556,3.6841,1.1076,6105,3456,1.766493056,1140,696,4.1905,3.2618,93.17940000000002
29,3.2618,7293.5556,3.659,1.1066,6094,3477,1.752660339,1139,693,4.1904,3.2584,96.43780000000001
30,3.2584,7293.7778,3.6845,1.1076,6083,3500,1.738,1140,690,4.1904,3.255,99.6928
31,3.2551,7293.5556,3.688,1.1085,6072,3528,1.721088435,1141,687,4.1903,3.2519,102.94470000000001
32,3.252,7293.1111,3.6737,1.1085,6063,3543,1.711261643,1141,685,4.1902,3.2482,106.19290000000001
33,3.2482,7293.1111,3.6829,1.1105,6052,3564,1.698092031,1143,683,4.1901,3.2447,109.4376
34,3.245,7293.1111,3.6895,1.1115,6041,3593,1.681324798,1144,681,4.19,3.2418,112.6794
35,3.2419,7293.3333,3.6891,1.1124,6031,3615,1.668326418,1145,678,4.1899,3.2386,115.918
36,3.2386,7293.5556,3.6926,1.1134,6021,3636,1.655940594,1146,675,4.1898,3.2353,119.1533
37,3.2353,7293.3333,3.6797,1.1114,6011,3660,1.642349727,1144,673,4.1897,3.2321,122.3854
38,3.232,7293.1111,3.6753,1.1115,5999,3693,1.624424587,1144,670,4.1897,3.2285,125.6139
39,3.2283,7293.5556,3.6873,1.1125,5985,3722,1.608006448,1145,666,4.1897,3.2255,128.8394
40,3.2251,7293.7778,3.6922,1.1115,5975,3741,1.597166533,1144,664,4.1896,3.2221,132.06150000000002
41,3.2222,7293.7778,3.6894,1.1115,5964,3775,1.57986755,1144,662,4.1896,3.2193,135.28080000000003
42,3.2189,7294.2222,3.6974,1.1125,5954,3789,1.571390868,1145,660,4.1895,3.216,138.49680000000004
43,3.2157,7294.2222,3.6923,1.1115,5944,3818,1.55683604,1144,658,4.1894,3.213,141.70980000000003
44,3.2125,7293.7778,3.6966,1.1115,5934,3836,1.546923879,1144,657,4.1893,3.2097,144.91950000000003
45,3.2093,7294.2222,3.7012,1.1125,5924,3861,1.534317534,1145,655,4.1892,3.2065,148.12600000000003
46,3.2063,7293.7778,3.6921,1.1125,5913,3895,1.518100128,1145,654,4.1892,3.2036,151.32960000000003
47,3.2032,7293.7778,3.6971,1.1134,5904,3929,1.502672436,1146,651,4.1891,3.2003,154.52990000000003
48,3.1999,7293.5556,3.6993,1.1114,5893,3947,1.493032683,1144,649,4.1889,3.1971,157.72700000000003
49,3.1969,7293.5556,3.6998,1.1115,5883,3974,1.480372421,1144,648,4.1889,3.1941,160.92110000000002
50,3.1936,7293.7778,3.679,1.1115,5873,3990,1.471929825,1144,647,4.1889,3.191,164.11210000000003
51,3.1905,7294.0,3.7088,1.1115,5863,4018,1.459183673,1144,645,4.1888,3.1878,167.29990000000004
52,3.1875,7293.7778,3.7023,1.1115,5853,4047,1.446256486,1144,644,4.1887,3.1848,170.48470000000003
53,3.1844,7294.0,3.7128,1.1096,5843,4075,1.433865031,1142,643,4.1886,3.1818,173.66650000000004
54,3.1813,7294.0,3.7121,1.1095,5833,4101,1.422336016,1142,641,4.1885,3.1786,176.84510000000003
55,3.1781,7293.5556,3.6895,1.1096,5822,4132,1.409002904,1142,640,4.1885,3.1754,180.02050000000003
56,3.175,7294.0,3.701,1.1086,5811,4155,1.398555957,1141,639,4.1884,3.1723,183.19280000000003
57,3.1719,7293.7778,3.6871,1.1085,5801,4177,1.388795786,1141,638,4.1883,3.1694,186.36220000000003
58,3.1691,7293.7778,3.7044,1.1096,5792,4205,1.377407848,1142,637,4.1882,3.1665,189.52870000000004
59,3.1661,7293.7778,3.7073,1.1096,5783,4227,1.368109771,1142,636,4.1882,3.1636,192.69230000000005
60,3.1628,7294.2222,3.7124,1.1096,5774,4237,1.362756667,1142,636,4.1881,3.1604,195.85270000000006
61,3.1603,7293.7778,3.6892,1.1096,5765,4267,1.351066323,1142,635,4.1881,3.1578,199.01050000000006
62,3.157,7293.7778,3.7097,1.1085,5755,4287,1.342430604,1141,635,4.1879,3.1544,202.16490000000007
63,3.1541,7293.5556,3.7127,1.1086,5746,4314,1.331942513,1141,634,4.1878,3.1514,205.31630000000007
64,3.1511,7293.5556,3.7044,1.1085,5737,4338,1.322498847,1141,634,4.1878,3.1484,208.46470000000008
65,3.1478,7293.7778,3.714,1.1086,5727,4355,1.315040184,1141,634,4.1877,3.1454,211.61010000000007
66,3.1448,7293.7778,3.713,1.1086,5718,4373,1.307569174,1141,633,4.1876,3.1423,214.75240000000008
67,3.1419,7293.7778,3.7154,1.1086,5709,4406,1.295733091,1141,634,4.1876,3.1394,217.89180000000007
68,3.1388,7293.7778,3.7141,1.1076,5701,4429,1.287198013,1140,633,4.1875,3.1364,221.02820000000008
69,3.1359,7293.7778,3.7148,1.1076,5690,4455,1.277216611,1140,634,4.1873,3.1334,224.16160000000008
70,3.1329,7294.0,3.7167,1.1075,5680,4477,1.268706723,1140,634,4.1873,3.1305,227.2921000000001
71,3.1301,7293.7778,3.7142,1.1076,5671,4500,1.260222222,1140,635,4.1872,3.1279,230.4200000000001
72,3.127,7294.0,3.71,1.1086,5662,4514,1.254319894,1141,635,4.1871,3.1247,233.5447000000001
73,3.124,7294.2222,3.7225,1.1086,5653,4538,1.245702953,1141,635,4.187,3.1218,236.6665000000001
74,3.1211,7293.5556,3.7013,1.1095,5643,4556,1.238586479,1142,636,4.1869,3.1189,239.7854000000001
75,3.1189,7293.5556,3.7184,1.1095,5636,4586,1.228957697,1142,636,4.1869,3.1166,242.9020000000001
76,3.1159,7293.5556,3.7275,1.1066,5627,4596,1.2243255,1139,636,4.1868,3.1136,246.0156000000001
77,3.1133,7293.5556,3.7297,1.1066,5617,4626,1.214223952,1139,637,4.1868,3.111,249.12660000000008
78,3.1107,7293.5556,3.7365,1.1066,5608,4649,1.206280921,1139,638,4.1867,3.1083,252.2349000000001
79,3.1076,7293.5556,3.7312,1.1065,5598,4665,1.2,1139,638,4.1866,3.1053,255.3402000000001
80,3.1049,7293.5556,3.7193,1.1046,5589,4679,1.194486001,1137,639,4.1865,3.1025,258.4427000000001
81,3.1024,7293.5556,3.7413,1.1036,5582,4691,1.189938179,1136,638,4.1865,3.1002,261.5429000000001
82,3.0997,7293.5556,3.7333,1.1047,5575,4706,1.184657884,1137,639,4.1864,3.0975,264.6404000000001
83,3.0971,7293.3333,3.718,1.1037,5566,4726,1.177740161,1136,639,4.1864,3.0948,267.73520000000013
84,3.0942,7293.7778,3.7379,1.1046,5557,4742,1.17186841,1137,639,4.1863,3.092,270.8272000000001
85,3.0913,7293.7778,3.7475,1.1046,5549,4750,1.168210526,1137,640,4.1861,3.0891,273.9163000000001
86,3.0887,7293.7778,3.736,1.1046,5542,4766,1.162819975,1137,640,4.1861,3.0862,277.0025000000001
87,3.0857,7293.7778,3.7476,1.1057,5532,4782,1.156838143,1138,640,4.186,3.0834,280.0859000000001
88,3.0829,7293.5556,3.7431,1.1056,5524,4801,1.150593626,1138,640,4.186,3.0804,283.1663000000001
89,3.0796,7293.5556,3.741,1.1047,5514,4822,1.143508917,1137,641,4.1858,3.0772,286.2435000000001
90,3.077,7293.5556,3.7414,1.1047,5505,4854,1.134116193,1137,642,4.1858,3.0747,289.3182000000001
91,3.0741,7293.7778,3.7447,1.1037,5496,4865,1.129701953,1136,642,4.1857,3.0715,292.3897000000001
92,3.071,7293.5556,3.7413,1.1027,5486,4881,1.12395001,1135,642,4.1857,3.0686,295.4583000000001
93,3.0679,7293.5556,3.7435,1.1037,5477,4897,1.118439861,1136,643,4.1856,3.0654,298.52370000000013
94,3.0645,7293.5556,3.7235,1.1037,5464,4917,1.111246695,1136,643,4.1855,3.0621,301.5858000000001
95,3.0614,7293.5556,3.7358,1.1037,5455,4928,1.106939935,1136,644,4.1854,3.0591,304.6449000000001
96,3.0583,7293.5556,3.7462,1.1017,5448,4932,1.104622871,1134,644,4.1853,3.056,307.7009000000001
97,3.0555,7293.3333,3.7276,1.1017,5440,4950,1.098989899,1134,644,4.1852,3.0532,310.7541000000001
98,3.0527,7293.5556,3.7507,1.1027,5432,4964,1.094278807,1135,644,4.1851,3.0503,313.8044000000001
99,3.0495,7293.5556,3.7399,1.1018,5422,4981,1.088536438,1134,645,4.185,3.0472,316.8516000000001
100,3.0464,7293.5556,3.7472,1.1008,5412,4995,1.083483483,1133,645,4.1849,3.0441,319.8957000000001
101,3.0434,7293.5556,3.7375,1.1007,5402,5007,1.078889555,1133,646,4.1848,3.0413,322.93700000000007
102,3.0406,7293.3333,3.7275,1.1007,5395,5022,1.074273198,1133,645,4.1848,3.0385,325.97550000000007
103,3.0377,7293.5556,3.7426,1.0998,5386,5035,1.069712016,1132,645,4.1847,3.0356,329.01110000000006
104,3.0351,7293.5556,3.7583,2.5788,5378,5055,1.063897132,1132,647,4.1846,3.033,332.04410000000007
105,3.0323,7293.5556,3.7558,1.0998,5369,5070,1.058974359,1132,647,4.1845,3.0301,335.0742000000001
106,3.0297,7293.5556,3.7584,2.571,5361,5096,1.05200157,1133,648,4.1845,3.0276,338.1018000000001
107,3.0266,7293.5556,3.7689,1.0988,5351,5099,1.049421455,1131,648,4.1843,3.0244,341.1262000000001
108,3.0236,7293.5556,3.7529,1.0988,5342,5114,1.044583496,1131,648,4.1843,3.0216,344.1478000000001
109,3.0211,7293.5556,3.7529,1.0988,5334,5135,1.038753651,1131,648,4.1842,3.0192,347.1670000000001
110,3.0187,7293.5556,3.7456,2.5525,5326,5151,1.033973986,1131,648,4.1841,3.0166,350.18360000000007
111,3.0158,7293.5556,3.752,1.0978,5318,5166,1.029423151,1130,649,4.184,3.0138,353.1974000000001
112,3.0131,7293.5556,3.7691,2.5448,5310,5179,1.025294458,1131,649,4.1839,3.011,356.2084000000001
113,3.0102,7293.5556,3.76,1.0988,5302,5197,1.020203964,1131,649,4.1838,3.008,359.2164000000001
114,3.0076,7293.5556,3.7667,1.0968,5293,5222,1.013596323,1129,650,4.1837,3.0054,362.2218000000001
115,3.0045,7293.5556,3.7551,1.0979,5285,5226,1.011289705,1130,649,4.1837,3.0025,365.2243000000001
116,3.0019,7293.7778,3.7737,1.0949,5274,5248,1.004954268,1127,644,4.1836,2.9999,368.2242000000001
117,2.9995,7293.3333,3.7553,1.0959,5266,5273,0.998672482,1128,639,4.1836,2.9975,371.2217000000001
118,2.9968,7293.5556,3.7644,1.095,5258,5292,0.993575208,1127,634,4.1834,2.9948,374.2165000000001
119,2.9939,7293.5556,3.7724,1.0959,5249,5308,0.988884702,1128,630,4.1833,2.992,377.20850000000013
120,2.9913,7293.5556,3.7691,1.0949,5241,5316,0.985891648,1127,626,4.1832,2.9895,380.19800000000015
121,2.9887,7293.3333,3.7688,1.0939,5233,5337,0.980513397,1126,621,4.1832,2.9867,383.18470000000013
122,2.9857,7293.5556,3.7707,1.093,5224,5352,0.976083707,1125,614,4.183,2.9838,386.1685000000001
123,2.9834,7293.5556,3.7848,1.094,5216,5377,0.970057653,1126,611,4.183,2.9816,389.1501000000001
124,2.9808,7293.5556,3.7748,1.092,5206,5393,0.965325422,1124,606,4.1829,2.9789,392.12900000000013
125,2.9784,7293.5556,3.7593,1.0891,5199,5413,0.960465546,1121,601,4.1829,2.9766,395.10560000000015
126,2.976,7293.3333,3.7537,1.091,5190,5433,0.95527333,1123,598,4.1828,2.9741,398.0797000000002
127,2.9732,7293.7778,3.7792,1.091,5180,5448,0.950807636,1123,595,4.1826,2.9714,401.0511000000002
128,2.9705,7293.7778,3.78,1.091,5172,5455,0.94812099,1123,589,4.1825,2.9687,404.0198000000002
129,2.9678,7293.5556,3.7579,1.0891,5165,5462,0.945624313,1121,585,4.1824,2.966,406.9858000000002
130,2.9657,7293.5556,3.775,1.0891,5159,5484,0.940736689,1121,582,4.1824,2.9639,409.94970000000023
131,2.9632,7293.3333,3.7618,1.0881,5152,5490,0.938433515,1120,580,4.1823,2.9613,412.91100000000023
132,2.9604,7293.5556,3.7867,1.0862,5142,5520,0.931521739,1118,572,4.1822,2.9584,415.8694000000002
133,2.9578,7293.5556,3.7715,2.4485,5134,5543,0.926213242,1120,567,4.1821,2.9559,418.8253000000002
134,2.9554,7293.5556,3.7834,1.0861,5126,5558,0.922274199,1118,563,4.182,2.9536,421.7789000000002
135,2.9526,7293.7778,3.7972,2.4388,5117,5567,0.919166517,1117,558,4.1819,2.9508,424.7297000000002
136,2.9503,7293.5556,3.7838,1.0852,5109,5583,0.915099409,1117,555,4.1818,2.9486,427.6783000000002
137,2.9475,7293.5556,3.7824,2.43,5101,5583,0.913666488,1117,552,4.1817,2.9457,430.6240000000002
138,2.9448,7293.5556,3.7699,1.0842,5092,5601,0.909123371,1116,549,4.1816,2.9431,433.5671000000002
139,2.9424,7293.5556,3.7786,2.4222,5086,5615,0.905788068,1116,544,4.1815,2.9406,436.5077000000002
140,2.94,7293.5556,3.7714,1.0842,5079,5636,0.901171043,1116,536,4.1815,2.9381,439.44580000000025
141,2.9374,7293.3333,3.7778,1.0823,5073,5647,0.898353108,1114,533,4.1814,2.9357,442.38150000000024
142,2.9363,7293.5556,3.8091,2.4106,5065,5675,0.892511013,1114,527,4.1813,2.9363,445.31780000000026
143,2.9485,7293.5556,3.7733,1.1085,5214,5101,1.022152519,1141,585,4.1827,2.9485,448.2663000000003
144,2.9472,7293.3333,3.7606,1.1075,5210,5164,1.008907823,1140,627,4.1826,2.9457,451.2120000000003
145,2.9465,7293.5556,3.7629,1.1066,5215,5134,1.015777172,1139,631,4.1828,2.9448,454.15680000000026
146,2.9435,7293.5556,3.783,1.1075,5204,5171,1.006381744,1140,631,4.1826,2.9414,457.09820000000025
147,2.9414,7293.5556,3.7716,1.1066,5194,5170,1.004642166,1139,624,4.1825,2.9399,460.03810000000027
148,2.9389,7293.5556,3.7771,1.1085,5193,5152,1.007958075,1141,627,4.1824,2.9374,462.9755000000003
149,2.9395,7293.1111,3.7511,1.1066,5202,5092,1.021602514,1139,629,4.1827,2.9379,465.9134000000003
150,2.9348,7293.1111,3.7585,2.5467,5181,5165,1.003097773,1141,626,4.1823,2.933,468.8464000000003
151,2.9337,7293.1111,3.7647,1.1075,5186,5142,1.008556982,1140,621,4.1824,2.9322,471.7786000000003
152,2.9315,7293.1111,3.7632,1.1056,5182,5150,1.006213592,1138,621,4.1823,2.9299,474.7085000000003
153,2.9323,7293.3333,3.7736,2.5613,5183,5151,1.006212386,1140,618,4.1827,2.932,477.6405000000003
154,2.9388,7293.5556,3.7711,1.1008,5232,4947,1.057610673,1133,643,4.1838,2.9385,480.5790000000003
155,2.9095,7293.5556,3.7626,2.3551,5008,5793,0.864491628,1106,639,4.1795,2.8993,483.4783000000003
156,2.8992,7293.7778,3.8132,1.0706,4956,5852,0.846889952,1102,462,4.1795,2.8965,486.3748000000003
157,2.8963,7293.5556,3.8063,2.3444,4943,5885,0.839932031,1105,458,4.1795,2.8944,489.2692000000003
158,2.894,7293.5556,3.8064,2.3405,4933,5914,0.834122421,1105,454,4.1794,2.8923,492.1615000000003
159,2.8912,7293.7778,3.8208,1.0706,4922,5940,0.828619529,1102,447,4.1793,2.8895,495.0510000000003
160,2.8889,7293.3333,3.7891,1.0696,4912,5970,0.82278057,1101,441,4.1793,2.8873,497.93830000000025
161,2.8869,7293.7778,3.8321,1.0696,4901,6008,0.815745672,1101,435,4.1793,2.8853,500.8236000000002
162,2.8839,7293.7778,3.8402,2.3192,4893,6008,0.814414115,1101,432,4.1791,2.8824,503.70600000000024
163,2.8816,7293.7778,3.838,1.0667,4885,6018,0.811731472,1098,426,4.1789,2.8799,506.58590000000027
164,2.8791,7293.3333,3.8324,1.0678,4875,6044,0.806585043,1099,423,4.1789,2.8776,509.46350000000024
165,2.8769,7293.5556,3.8112,2.3076,4866,6066,0.802176063,1099,419,4.1788,2.8752,512.3387000000002
166,2.874,7293.5556,3.8439,1.0658,4857,6069,0.800296589,1097,414,4.1786,2.8723,515.2110000000002
167,2.8718,7293.1111,3.7981,2.2997,4851,6083,0.797468354,1098,410,4.1785,2.8702,518.0812000000002
168,2.8694,7293.1111,3.8087,2.2968,4845,6092,0.795305318,1100,408,4.1784,2.8676,520.9488000000002
169,2.867,7293.3333,3.8305,1.0657,4836,6114,0.790971541,1097,403,4.1784,2.8652,523.8140000000002
170,2.8641,7293.1111,3.8384,1.0648,4830,6118,0.789473684,1096,397,4.1783,2.8624,526.6764000000002
171,2.8615,7293.5556,3.8379,1.0648,4823,6133,0.786401435,1096,393,4.1781,2.8598,529.5362000000001
172,2.8592,7293.2222,3.8031,2.2803,4815,6158,0.781909711,1096,388,4.1781,2.8574,532.3936000000001
173,2.8564,7293.3333,3.8402,2.2764,4806,6167,0.779309227,1095,384,4.1779,2.8548,535.2484000000001
174,2.8541,7293.5556,3.8316,1.0629,4798,6185,0.775747777,1094,381,4.1779,2.8523,538.1007000000001
175,2.8512,7293.1111,3.8236,1.0619,4789,6193,0.773292427,1093,379,4.1777,2.8497,540.9504000000001
176,2.8492,7293.3333,3.8461,2.2637,4780,6221,0.768365215,1091,376,4.1777,2.8475,543.7979
177,2.8468,7293.1111,3.8052,2.2598,4770,6244,0.763933376,1091,371,4.1776,2.845,546.6429
178,2.8446,7293.1111,3.8102,1.0561,4762,6270,0.759489633,1087,366,4.1775,2.8428,549.4857000000001
179,2.842,7293.1111,3.8054,2.2511,4754,6277,0.75736817,1087,362,4.1774,2.8403,552.326
180,2.8399,7293.1111,3.8063,1.0532,4746,6297,0.753692234,1084,357,4.1775,2.8382,555.1642
181,2.8375,7293.5556,3.847,2.2414,4736,6321,0.749248537,1085,352,4.1775,2.836,558.0002000000001
182,2.8361,7293.5556,3.8352,2.2375,4729,6350,0.744724409,1085,349,4.1775,2.8345,560.8347000000001
183,2.8327,7293.1111,3.8051,2.2326,4721,6324,0.746521189,1085,346,4.1772,2.831,563.6657000000001
184,2.8302,7293.5556,3.8601,2.2287,4714,6335,0.744119968,1084,343,4.1771,2.8286,566.4943000000002
185,2.8273,7293.5556,3.8275,1.0521,4708,6328,0.743994943,1083,340,4.177,2.8258,569.3201000000001
186,2.8247,7293.3333,3.8358,1.0521,4701,6338,0.74171663,1083,336,4.1769,2.8231,572.1432000000001
187,2.8221,7293.3333,3.831,1.0502,4695,6345,0.739952719,1081,334,4.1768,2.8205,574.9637000000001
188,2.8195,7293.3333,3.8294,1.0502,4686,6362,0.73656083,1081,327,4.1767,2.8181,577.7818000000001
189,2.8165,7293.5556,3.853,2.2083,4677,6357,0.735724398,1082,323,4.1764,2.815,580.5968000000001
190,2.8138,7293.5556,3.8262,1.0492,4668,6359,0.734077685,1080,321,4.1763,2.8124,583.4092000000002
191,2.8115,7293.5556,3.8344,2.2005,4659,6381,0.730136342,1080,317,4.1763,2.81,586.2192000000001
192,2.8092,7293.3333,3.8476,1.0473,4652,6399,0.726988592,1078,314,4.1763,2.8075,589.0267000000001
193,2.8067,7293.5556,3.8374,1.0444,4642,6425,0.722490272,1075,304,4.1762,2.8051,591.8318000000002
194,2.8041,7293.5556,3.832,1.0444,4636,6429,0.721107482,1075,299,4.1761,2.8024,594.6342000000002
195,2.802,7293.3333,3.8405,2.185,4627,6463,0.715921399,1075,290,4.1761,2.8006,597.4348000000002
196,2.7993,7293.7778,3.8805,1.0444,4617,6475,0.713050193,1075,281,4.176,2.798,600.2328000000002
197,2.7971,7293.5556,3.8515,2.1772,4612,6486,0.711069997,1074,276,4.1759,2.7957,603.0285000000002
198,2.7945,7293.1111,3.8396,1.0415,4606,6493,0.709379332,1072,273,4.1757,2.7931,605.8216000000002
199,2.7922,7293.3333,3.8747,1.0414,4602,6501,0.707891094,1072,269,4.1756,2.7907,608.6123000000002
200,2.7901,7293.3333,3.8398,1.0414,4597,6521,0.704953228,1072,266,4.1756,2.7887,611.4010000000002
201,2.7868,7293.5556,3.8447,1.0405,4591,6505,0.705764796,1071,262,4.1754,2.7854,614.1864000000002
202,2.7841,7293.5556,3.8567,1.0395,4583,6513,0.703669584,1070,259,4.1752,2.7825,616.9689000000002
203,2.8125,7293.5556,3.8315,2.3716,4801,5629,0.852904601,1121,256,4.1789,2.8125,619.7814000000002
204,2.8064,7293.3333,3.8235,2.3532,4834,5610,0.861675579,1121,426,4.178,2.8051,622.5865000000002
205,2.806,7293.1111,3.8376,2.3639,4833,5605,0.862265834,1122,419,4.1783,2.8054,625.3919000000002
206,2.8122,7293.5556,3.8134,2.3941,4863,5512,0.882256894,1123,426,4.1793,2.8122,628.2041000000002
207,2.8127,7293.7778,3.8341,1.0823,4912,5304,0.926093514,1114,470,4.1794,2.8102,631.0143000000002
