循环号,最大容量(Ah),ICA峰值,ICA峰值位置(V),2.8~3.4V放电面积(Ah),恒流充电时间(s),恒压充电时间(s),恒流与恒压时间比值,2.8~3.4V放电时间(s),3.3~3.6V充电时间(s),弛豫末端电压,放电容量(Ah),累计放电容量(Ah)
1,3.3874,7292.0,3.8306,1.1512,4641,3712,1.250269397,1185,14,4.1907,3.3874,3.3874
2,3.3913,7291.7778,3.623,1.122,6363,3425,1.857810219,1155,729,4.191,3.3617,6.7491
3,3.3653,7291.7778,3.5993,1.1084,6340,3298,1.922377198,1141,753,4.1911,3.3472,10.0963
4,3.3501,7291.7778,3.6515,1.1026,6324,3218,1.965195774,1135,769,4.1911,3.3397,13.436
5,3.3411,7292.0,3.6393,1.0967,6314,3350,1.884776119,1129,774,4.1911,3.3302,16.7662
6,3.3321,7291.7778,3.6285,1.0919,6304,3120,2.020512821,1124,778,4.191,3.3235,20.0897
7,3.3247,7292.0,3.6572,1.089,6286,3136,2.004464286,1121,775,4.1912,3.3166,23.4063
8,3.3177,7292.0,3.6591,1.0899,6274,3122,2.009609225,1122,772,4.1911,3.3114,26.7177
9,3.3123,7292.0,3.6566,1.088,6263,3118,2.008659397,1120,771,4.1911,3.3055,30.0232
10,3.3063,7291.7778,3.638,1.0851,6251,3311,1.88794926,1117,767,4.191,3.2996,33.3228
11,3.3,7291.7778,3.6259,1.0841,6238,3311,1.884022954,1116,765,4.191,3.2939,36.6167
12,3.2942,7292.0,3.6676,1.0861,6223,3135,1.985007974,1118,761,4.1911,3.2886,39.905300000000004
13,3.2887,7292.0,3.6741,1.0841,6209,3332,1.863445378,1116,757,4.191,3.283,43.188300000000005
14,3.2839,7292.0,3.6725,1.085,6198,3149,1.968243887,1117,754,4.1909,3.2788,46.4671
15,3.2791,7292.0,3.6545,1.086,6189,3336,1.855215827,1118,751,4.1908,3.2741,49.7412
16,3.2746,7292.2222,3.6772,1.0861,6179,3154,1.959099556,1118,751,4.1906,3.2697,53.0109
17,3.27,7292.0,3.673,1.087,6168,3165,1.948815166,1119,747,4.1906,3.2657,56.2766
18,3.2658,7292.0,3.6311,1.086,6154,3182,1.934003771,1118,743,4.1906,3.2612,59.537800000000004
19,3.2613,7292.0,3.6813,1.0851,6142,3204,1.916978777,1117,739,4.1908,3.2571,62.794900000000005
20,3.2572,7292.0,3.6816,1.085,6132,3206,1.912663755,1117,734,4.1905,3.2533,66.04820000000001
21,3.2537,7292.0,3.6776,1.0851,6125,3214,1.905724953,1117,732,4.1905,3.2498,69.298
22,3.2498,7291.7778,3.6383,1.086,6115,3216,1.901430348,1118,728,4.1903,3.2461,72.5441
23,3.2463,7291.5556,3.6667,1.0841,6106,3231,1.889817394,1116,725,4.1902,3.2423,75.7864
24,3.2427,7291.7778,3.6391,1.0841,6093,3251,1.874192556,1116,723,4.1902,3.2396,79.026
25,3.2401,7291.7778,3.6803,1.085,6085,3276,1.857448107,1117,720,4.1902,3.2362,82.26219999999999
26,3.2369,7292.0,3.6774,1.087,6078,3462,1.755632582,1119,717,4.1897,3.2332,85.49539999999999
27,3.2336,7291.7778,3.6785,1.086,6071,3471,1.74906367,1118,717,4.1897,3.2302,88.72559999999999
28,3.2303,7291.7778,3.6831,1.085,6060,3490,1.736389685,1117,713,4.1895,3.2266,91.95219999999999
29,3.227,7291.7778,3.6892,1.086,6050,3332,1.815726291,1118,710,4.1895,3.2235,95.17569999999999
30,3.2236,7291.5556,3.6909,1.0831,6041,3346,1.805439331,1115,706,4.1894,3.2204,98.39609999999999
31,3.2208,7291.7778,3.6751,1.0851,6031,3368,1.79067696,1117,702,4.1894,3.2174,101.61349999999999
32,3.2174,7291.7778,3.6584,1.087,6021,3381,1.780834073,1119,701,4.1893,3.2142,104.8277
33,3.2135,7291.7778,3.686,1.0851,6006,3411,1.760773967,1117,697,4.1895,3.2099,108.0376
34,3.2097,7291.7778,3.6842,1.0831,5993,3611,1.659651066,1115,689,4.1894,3.2069,111.2445
35,3.2071,7292.0,3.6954,1.0821,5984,3639,1.644407804,1114,686,4.1894,3.2041,114.4486
36,3.2037,7292.0,3.6915,1.0831,5973,3467,1.722815114,1115,683,4.1893,3.201,117.64959999999999
37,3.2009,7291.7778,3.683,1.0821,5963,3497,1.705175865,1114,681,4.1894,3.1981,120.84769999999999
38,3.198,7292.0,3.6936,1.0812,5953,3516,1.693117179,1113,677,4.1893,3.1952,124.04289999999999
39,3.195,7292.0,3.7016,1.0811,5943,3527,1.685001418,1113,674,4.1892,3.1924,127.2353
40,3.1923,7292.0,3.7031,1.0792,5934,3545,1.673906911,1111,671,4.1891,3.1897,130.42499999999998
41,3.1897,7292.0,3.6961,1.0792,5925,3571,1.659199104,1111,669,4.189,3.1871,133.61209999999997
42,3.1869,7292.0,3.6986,1.0802,5913,3786,1.561806656,1112,667,4.1889,3.1844,136.79649999999998
43,3.1845,7291.5556,3.6759,1.0792,5908,3605,1.638834951,1111,667,4.1885,3.1822,139.97869999999998
44,3.1812,7291.7778,3.6962,1.0744,5901,3788,1.55781415,1106,664,4.1888,3.1788,143.15749999999997
45,3.1781,7291.7778,3.7083,1.0753,5887,3832,1.536273486,1107,660,4.1888,3.1758,146.33329999999998
46,3.1757,7292.0,3.7053,1.0783,5876,3686,1.594139989,1110,658,4.1887,3.1733,149.5066
47,3.1726,7292.0,3.6993,1.0773,5866,3692,1.588840737,1109,656,4.1886,3.1705,152.6771
48,3.1703,7291.5556,3.6875,1.0753,5858,3717,1.576002152,1107,654,4.1886,3.1679,155.845
49,3.1675,7291.7778,3.7035,1.0763,5844,3755,1.5563249,1108,653,4.1886,3.165,159.01
50,3.1654,7292.0,3.6973,1.0763,5841,3760,1.553457447,1108,652,4.1883,3.1626,162.1726
51,3.1625,7292.0,3.6929,1.0743,5831,3788,1.539334741,1106,651,4.1881,3.16,165.33259999999999
52,3.1597,7292.0,3.6981,1.0715,5821,3813,1.52661946,1103,648,4.188,3.1573,168.48989999999998
53,3.1568,7291.7778,3.7084,1.0704,5813,3820,1.521727749,1102,648,4.1881,3.1542,171.64409999999998
54,3.1539,7291.7778,3.7023,1.0705,5805,4011,1.447270007,1102,645,4.188,3.1514,174.79549999999998
55,3.1502,7292.0,3.7059,1.0705,5789,3873,1.494706946,1102,644,4.1883,3.1481,177.94359999999998
56,3.148,7292.0,3.7131,1.0686,5784,4053,1.427091044,1100,642,4.1881,3.1458,181.08939999999998
57,3.1457,7292.0,3.7176,1.0705,5775,3899,1.481149013,1102,641,4.1879,3.1437,184.23309999999998
58,3.1437,7292.0,3.7039,1.0704,5770,3920,1.471938776,1102,641,4.1877,3.1414,187.37449999999998
59,3.1414,7292.0,3.7035,1.0695,5762,4114,1.400583374,1101,640,4.1876,3.139,190.5135
60,3.1384,7292.0,3.7086,1.0676,5751,3961,1.451906084,1099,640,4.1877,3.1363,193.6498
61,3.1355,7291.7778,3.702,1.0656,5740,3975,1.444025157,1097,638,4.1877,3.1334,196.7832
62,3.1332,7292.0,3.7213,1.0676,5732,4005,1.431210986,1099,638,4.1877,3.1311,199.9143
63,3.131,7292.0,3.7169,1.0665,5722,4033,1.418794942,1098,638,4.1875,3.1288,203.0431
64,3.1284,7291.7778,3.7119,1.0656,5713,4056,1.408530572,1097,636,4.1874,3.1262,206.16930000000002
65,3.1255,7292.0,3.7093,1.0656,5705,4069,1.402064389,1097,635,4.1872,3.1236,209.29290000000003
66,3.1229,7291.7778,3.7111,1.0617,5697,4096,1.390869141,1093,636,4.1873,3.1208,212.41370000000003
67,3.1194,7292.0,3.7209,1.0618,5687,4123,1.379335435,1093,636,4.1875,3.1176,215.53130000000004
68,3.1167,7292.0,3.718,1.0618,5677,4151,1.36762226,1093,635,4.1875,3.1151,218.64640000000006
69,3.1156,7292.0,3.7273,1.0637,5678,4304,1.319237918,1095,635,4.1868,3.1135,221.75990000000004
70,3.1133,7291.7778,3.7212,1.0636,5671,4150,1.366506024,1095,635,4.1866,3.1114,224.87130000000005
71,3.1111,7292.0,3.723,1.0617,5665,4164,1.360470701,1093,634,4.1865,3.1091,227.98040000000006
72,3.1084,7291.7778,3.72,1.0608,5656,4176,1.35440613,1092,634,4.1865,3.1064,231.08680000000007
73,3.1061,7292.2222,3.7317,1.0607,5644,4202,1.343169919,1092,634,4.1865,3.1041,234.19090000000006
74,3.1038,7292.0,3.7267,1.0607,5636,4227,1.333333333,1092,634,4.1864,3.1015,237.29240000000004
75,3.1014,7291.7778,3.7199,1.0578,5626,4423,1.271987339,1089,635,4.1863,3.0993,240.39170000000004
76,3.0991,7292.0,3.7352,1.0578,5618,4275,1.314152047,1089,636,4.1862,3.0972,243.48890000000003
77,3.0971,7292.2222,3.738,1.0568,5612,4291,1.307853647,1088,635,4.1861,3.0951,246.58400000000003
78,3.0948,7292.0,3.7358,1.0549,5603,4317,1.297892055,1086,636,4.1862,3.0927,249.67670000000004
79,3.0923,7291.7778,3.7036,1.053,5597,4501,1.243501444,1084,636,4.1861,3.0901,252.76680000000005
80,3.0896,7292.0,3.7374,1.0568,5587,4352,1.283777574,1088,637,4.186,3.0876,255.85440000000006
81,3.0872,7292.2222,3.7325,1.0578,5580,4359,1.280110117,1089,637,4.1858,3.0851,258.93950000000007
82,3.0845,7292.0,3.7298,1.0558,5575,4363,1.277790511,1087,638,4.1857,3.0824,262.0219000000001
83,3.0824,7292.0,3.731,1.0548,5567,4388,1.268687329,1086,638,4.1858,3.0806,265.1025000000001
84,3.08,7292.0,3.7226,1.0558,5558,4405,1.261748014,1087,638,4.1856,3.0779,268.1804000000001
85,3.0772,7292.0,3.7271,1.0549,5547,4428,1.252710027,1086,639,4.1856,3.0753,271.2557000000001
86,3.0751,7292.0,3.7255,1.0529,5539,4454,1.243601257,1084,639,4.1856,3.0734,274.3291000000001
87,3.0731,7292.2222,3.7309,1.051,5534,4637,1.193444037,1082,639,4.1854,3.0711,277.4002000000001
88,3.0703,7291.7778,3.7076,1.0509,5526,4471,1.235965108,1082,640,4.1853,3.0683,280.4685000000001
89,3.0673,7292.0,3.7367,1.0471,5516,4655,1.184962406,1078,641,4.1853,3.0651,283.5336000000001
90,3.0645,7292.2222,3.753,1.0481,5502,4705,1.169394261,1079,642,4.1854,3.0628,286.5964000000001
91,3.0624,7291.7778,3.7486,1.049,5496,4710,1.166878981,1080,642,4.1851,3.0607,289.65710000000007
92,3.0607,7291.7778,3.7498,1.0501,5494,4561,1.204560403,1081,643,4.1852,3.0592,292.71630000000005
93,3.0585,7292.0,3.7334,1.049,5486,4569,1.200700372,1080,643,4.185,3.0567,295.773
94,3.0561,7292.0,3.7402,1.0471,5480,4579,1.196767853,1078,643,4.185,3.0548,298.8278
95,3.0541,7291.7778,3.7369,1.0471,5467,4613,1.185128983,1078,643,4.1849,3.0523,301.8801
96,3.0516,7291.7778,3.7317,1.0471,5456,4634,1.177384549,1078,644,4.1848,3.0498,304.92990000000003
97,3.0493,7291.7778,3.7287,1.0451,5449,4815,1.131671859,1076,645,4.1847,3.0476,307.9775
98,3.0471,7292.0,3.7627,1.0442,5443,4838,1.125051674,1075,645,4.1846,3.0453,311.0228
99,3.0447,7292.0,3.7523,1.0442,5435,4859,1.11854291,1075,645,4.1846,3.0431,314.0659
100,3.0424,7291.7778,3.7487,1.0432,5428,4871,1.114350236,1074,646,4.1845,3.0406,317.1065
101,3.04,7291.7778,3.7552,1.0412,5420,4892,1.107931316,1072,646,4.1844,3.0384,320.1449
102,3.0379,7291.7778,3.7572,1.0432,5413,4753,1.138859668,1074,647,4.1844,3.0365,323.1814
103,3.0357,7291.7778,3.7467,1.0422,5406,4768,1.133808725,1073,647,4.1843,3.0339,326.2153
104,3.0334,7291.7778,3.7554,1.0413,5397,4796,1.125312761,1072,648,4.1841,3.0318,329.2471
105,3.0308,7291.7778,3.7624,1.0403,5389,4799,1.12294228,1071,648,4.184,3.0293,332.27639999999997
106,3.0287,7291.7778,3.7621,1.0402,5383,4817,1.117500519,1071,649,4.184,3.0274,335.30379999999997
107,3.0266,7291.7778,3.7516,1.0384,5375,4833,1.112145665,1069,649,4.1839,3.0248,338.3286
108,3.0241,7292.0,3.7619,1.0374,5370,4840,1.109504132,1068,649,4.1838,3.0225,341.3511
109,3.0217,7291.7778,3.768,1.0364,5362,5022,1.067702111,1067,650,4.1836,3.0197,344.3708
110,3.0191,7291.7778,3.769,1.0373,5353,4881,1.096701496,1068,650,4.1836,3.018,347.38879999999995
111,3.0171,7291.7778,3.7615,1.0364,5349,4887,1.094536525,1067,651,4.1836,3.0156,350.40439999999995
112,3.0153,7291.7778,3.7616,1.0354,5340,4920,1.085365854,1066,651,4.1835,3.0138,353.41819999999996
113,3.0129,7291.7778,3.767,1.0364,5332,4932,1.081103001,1067,652,4.1833,3.011,356.4292
114,3.0104,7291.7778,3.7704,1.0345,5325,4957,1.074238451,1065,652,4.1832,3.0087,359.43789999999996
115,3.0077,7291.7778,3.7711,1.0344,5312,4972,1.068382944,1065,652,4.1832,3.0061,362.44399999999996
116,3.0055,7291.7778,3.7735,1.0326,5305,4988,1.063552526,1063,653,4.183,3.0041,365.44809999999995
117,3.0033,7292.0,3.7653,1.0325,5294,5010,1.056686627,1063,653,4.1831,3.0016,368.44969999999995
118,3.0007,7292.0,3.7845,1.0315,5284,5027,1.051123931,1062,654,4.1829,2.9991,371.44879999999995
119,2.9987,7292.0,3.7617,1.0305,5276,5218,1.01111537,1061,649,4.1828,2.9968,374.44559999999996
120,2.9961,7292.0,3.7728,1.0305,5267,5073,1.038241672,1061,644,4.1828,2.9949,377.44049999999993
121,2.9945,7292.0,3.7651,1.0315,5259,5104,1.030368339,1062,640,4.1827,2.9928,380.4332999999999
122,2.9918,7291.7778,3.7674,1.0296,5252,5120,1.02578125,1060,636,4.1827,2.9902,383.42349999999993
123,2.9894,7291.7778,3.7839,1.0287,5241,5150,1.017669903,1059,629,4.1826,2.9879,386.41139999999996
124,2.9875,7291.5556,3.7533,1.0305,5233,5173,1.011598685,1061,625,4.1826,2.9859,389.3973
125,2.9853,7292.0,3.7942,1.0286,5226,5179,1.009075111,1059,621,4.1824,2.9837,392.381
126,2.9832,7291.3333,3.7583,1.0287,5220,5358,0.974244121,1059,617,4.1823,2.9815,395.36249999999995
127,2.9804,7291.5556,3.7695,1.0286,5215,5356,0.973674384,1059,614,4.1822,2.9787,398.34119999999996
128,2.9774,7291.7778,3.7833,1.0277,5202,5212,0.998081351,1058,608,4.182,2.9763,401.31749999999994
129,2.9757,7291.7778,3.7956,1.0257,5194,5238,0.991599847,1056,601,4.1819,2.9744,404.29189999999994
130,2.9737,7291.7778,3.7884,1.0248,5189,5244,0.989511823,1055,600,4.1819,2.972,407.2638999999999
131,2.9713,7291.7778,3.792,1.0238,5179,5277,0.981428842,1054,595,4.1818,2.9698,410.23369999999994
132,2.9689,7291.7778,3.8025,1.0228,5173,5456,0.948130499,1053,589,4.1817,2.9671,413.20079999999996
133,2.9663,7291.5556,3.7812,1.0218,5165,5302,0.974160694,1052,585,4.1817,2.9651,416.16589999999997
134,2.9638,7292.0,3.7851,1.0199,5155,5323,0.96843885,1050,577,4.1816,2.9623,419.1282
135,2.962,7291.7778,3.7669,1.0189,5147,5352,0.961696562,1049,573,4.1815,2.9606,422.0888
136,2.9593,7291.7778,3.7914,1.0199,5142,5347,0.961660744,1050,567,4.1814,2.9577,425.0465
137,2.9573,7291.7778,3.8003,1.0179,5135,5372,0.955882353,1048,564,4.1812,2.9557,428.00219999999996
138,2.9668,7291.5556,3.7709,1.0889,5122,5404,0.947816432,1121,558,4.1813,2.9668,430.96899999999994
139,2.9806,7291.7778,3.7611,1.0782,5386,4511,1.193970295,1110,636,4.1833,2.9789,433.94789999999995
140,2.9773,7291.5556,3.7382,1.0782,5370,4567,1.175826582,1110,637,4.1832,2.976,436.92389999999995
141,2.975,7291.7778,3.7574,1.0773,5370,4749,1.130764371,1109,637,4.183,2.9734,439.8973
142,2.9716,7291.5556,3.747,1.0782,5360,4594,1.166739225,1110,637,4.1827,2.97,442.8673
143,2.9698,7291.3333,3.7404,1.0772,5354,4600,1.163913043,1109,639,4.1828,2.969,445.8363
144,2.9694,7291.7778,3.7579,1.0763,5366,4544,1.180897887,1108,637,4.1828,2.9685,448.8048
145,2.9698,7291.7778,3.761,1.0734,5376,4679,1.148963454,1105,636,4.1832,2.9685,451.7733
146,2.9644,7291.5556,3.7463,1.0734,5360,4732,1.13271344,1105,635,4.1825,2.9621,454.7354
147,2.9622,7291.3333,3.7461,1.0743,5346,4592,1.164198606,1106,638,4.1825,2.9609,457.6963
148,2.9601,7291.7778,3.7592,1.0733,5341,4593,1.162856521,1105,639,4.1823,2.9586,460.6549
149,2.9597,7291.5556,3.7482,1.0743,5340,4594,1.162385721,1106,639,4.1827,2.9597,463.6146
150,2.9664,7291.7778,3.7543,1.0684,5378,4611,1.166341358,1100,636,4.1838,2.9664,466.581
151,2.9382,7291.7778,3.7521,1.0005,5401,4220,1.27985782,1030,630,4.1791,2.9205,469.5015
152,2.9198,7292.4444,3.8188,1.0004,4991,5695,0.876382792,1030,475,4.1794,2.9183,472.4198
153,2.9179,7292.0,3.8155,0.9984,4979,5913,0.842042956,1028,474,4.1793,2.9167,475.3365
154,2.9165,7291.7778,3.8061,0.9994,4968,5764,0.861901457,1029,473,4.1793,2.9158,478.2523
155,2.9138,7292.0,3.8081,0.9965,4955,5784,0.856673582,1026,471,4.1794,2.9123,481.1646
156,2.9119,7292.0,3.8185,0.9965,4943,6005,0.823147377,1026,465,4.1792,2.9108,484.0754
157,2.9104,7292.0,3.7903,0.9946,4930,5850,0.842735043,1024,459,4.1791,2.9091,486.9845
158,2.9078,7292.2222,3.8216,0.9956,4922,6045,0.814226634,1025,455,4.1789,2.906,489.89050000000003
159,2.9056,7292.0,3.8006,0.9946,4917,5877,0.836651353,1024,449,4.1788,2.9043,492.7948
160,2.9026,7292.2222,3.8296,0.9927,4905,5906,0.830511344,1022,446,4.1791,2.9012,495.696
161,2.9005,7292.0,3.8277,0.9926,4898,5929,0.826108956,1022,441,4.1787,2.8993,498.5953
162,2.8985,7291.7778,3.8213,0.9916,4891,5952,0.821740591,1021,436,4.1785,2.897,501.4923
163,2.8969,7291.7778,3.8323,0.9907,4887,5960,0.819966443,1020,432,4.1784,2.895,504.3873
164,2.8948,7291.5556,3.8028,0.9907,4876,5992,0.813751669,1020,428,4.1784,2.8929,507.2802
165,2.8912,7291.7778,3.8132,0.9917,4865,6177,0.787599158,1021,422,4.1782,2.8894,510.1696
166,2.8881,7292.0,3.8509,0.9908,4853,6201,0.782615707,1020,417,4.1782,2.8867,513.0563
167,2.8859,7291.5556,3.7927,0.9888,4846,6213,0.779977467,1018,414,4.1779,2.8842,515.9404999999999
168,2.8836,7291.7778,3.8394,0.9887,4840,6042,0.801059252,1018,411,4.1779,2.8822,518.8226999999999
169,2.8815,7291.5556,3.8069,0.9878,4831,6073,0.795488227,1017,406,4.1779,2.8802,521.7028999999999
170,2.8792,7291.7778,3.8568,0.9849,4824,6096,0.791338583,1014,403,4.1778,2.8774,524.5802999999999
171,2.8767,7292.0,3.8528,0.981,4809,6128,0.784758486,1010,395,4.1777,2.8752,527.4554999999998
172,2.8737,7291.7778,3.8527,0.9829,4808,6105,0.787551188,1012,391,4.1773,2.8721,530.3275999999998
173,2.8711,7291.7778,3.8557,0.9819,4797,6125,0.783183673,1011,386,4.1773,2.8694,533.1969999999999
174,2.8686,7291.5556,3.8489,0.9849,4789,6154,0.778193045,1014,383,4.1772,2.8674,536.0643999999999
175,2.8669,7291.3333,3.8205,0.978,4777,6402,0.746173071,1007,378,4.1773,2.8645,538.9288999999999
176,2.8632,7291.7778,3.846,0.9771,4763,6231,0.764403788,1006,368,4.1772,2.8623,541.7911999999999
177,2.8617,7291.3333,3.8127,0.9781,4755,6246,0.761287224,1007,365,4.1771,2.8598,544.6509999999998
178,2.8592,7291.3333,3.8104,0.9771,4746,6448,0.736042184,1006,362,4.1769,2.8572,547.5081999999999
179,2.8558,7291.7778,3.8444,0.9771,4737,6245,0.758526821,1006,358,4.1769,2.8546,550.3627999999999
180,2.8532,7291.5556,3.8165,0.9771,4725,6256,0.755274936,1006,353,4.1768,2.8521,553.2148999999998
181,2.8511,7291.5556,3.8219,0.9752,4711,6293,0.748609566,1004,348,4.1767,2.8495,556.0643999999999
182,2.8489,7291.3333,3.8545,0.9732,4704,6318,0.744539411,1002,344,4.1765,2.8476,558.9119999999998
183,2.8473,7291.6667,3.8215,0.9703,4698,6362,0.738447029,999,340,4.1766,2.8453,561.7572999999998
184,2.8444,7291.6667,3.8241,0.9693,4691,6373,0.736074062,998,334,4.1766,2.8428,564.6000999999998
185,2.8414,7291.7778,3.8455,0.9674,4680,6411,0.729995321,996,327,4.1766,2.8399,567.4399999999998
186,2.839,7291.5556,3.8251,0.9693,4678,6420,0.728660436,998,320,4.1762,2.8374,570.2773999999998
187,2.8357,7291.7778,3.8445,0.9693,4662,6438,0.724137931,998,316,4.1762,2.8343,573.1116999999998
188,2.8332,7292.0,3.8463,0.9684,4649,6455,0.720216886,997,315,4.176,2.832,575.9436999999998
189,2.8305,7291.7778,3.8452,0.9664,4639,6467,0.717334158,995,312,4.1759,2.8297,578.7733999999998
190,2.8274,7291.7778,3.8408,0.9655,4628,6466,0.715743891,994,311,4.176,2.8258,581.5991999999998
191,2.8259,7292.0,3.8443,0.9664,4616,6523,0.707649854,995,301,4.1757,2.8239,584.4230999999997
192,2.8229,7291.5556,3.845,0.9645,4609,6519,0.707010278,993,295,4.1756,2.8223,587.2453999999998
193,2.8216,7291.7778,3.8418,0.9645,4601,6764,0.680218805,993,295,4.1756,2.8192,590.0645999999998
194,2.8182,7291.5556,3.8504,0.9645,4588,6582,0.697052568,993,288,4.1756,2.817,592.8815999999998
195,2.8147,7292.0,3.8782,0.9635,4576,6569,0.696605267,992,281,4.1755,2.8139,595.6954999999998
196,2.8129,7292.0,3.853,0.9625,4569,6587,0.693638986,991,281,4.1751,2.8111,598.5065999999998
197,2.8534,7291.7778,3.8921,1.0481,4898,5385,0.909563603,1079,277,4.1792,2.8534,601.3599999999998
198,2.8488,7291.5556,3.7864,1.0491,4963,5506,0.901380312,1080,531,4.1784,2.8475,604.2074999999998
199,2.8495,7291.7778,3.8246,1.052,4958,5525,0.897375566,1083,516,4.1788,2.8495,607.0569999999998
200,2.8579,7291.5556,3.7935,1.051,5000,5188,0.963762529,1082,530,4.1798,2.8579,609.9148999999998
201,2.86,7291.5556,3.7697,1.0452,5061,5180,0.977027027,1076,567,4.1799,2.8578,612.7726999999998
202,2.8495,7291.5556,3.7829,1.0481,5003,5207,0.96082197,1079,540,4.1786,2.846,615.6186999999998
203,2.8432,7291.5556,3.7994,1.0442,4959,5371,0.923291752,1075,503,4.1781,2.8412,618.4598999999997
204,2.8394,7291.5556,3.8142,1.0422,4935,5451,0.90533847,1073,488,4.178,2.8382,621.2980999999997
205,2.8462,7291.7778,3.832,1.0433,4942,5425,0.910967742,1074,487,4.1793,2.8462,624.1442999999997
206,2.8534,7291.5556,3.7923,1.0393,4993,5206,0.95908567,1070,527,4.1803,2.8534,626.9976999999997
207,2.8499,7291.7778,3.8162,1.0373,5007,5090,0.983693517,1068,550,4.1795,2.8464,629.8440999999997
208,2.8364,7291.7778,3.8223,1.0413,4926,5357,0.919544521,1072,513,4.1779,2.8337,632.6777999999997
209,2.8334,7291.6667,3.7808,1.0403,4911,5420,0.906088561,1071,483,4.1779,2.8317,635.5094999999997
210,2.8329,7291.7778,3.8386,1.0413,4904,5464,0.897510981,1072,475,4.1783,2.8329,638.3423999999997
211,2.8389,7291.7778,3.8275,1.0393,4944,5298,0.933182333,1070,490,4.1792,2.8389,641.1812999999996
212,2.84,7291.5556,3.8103,1.0345,4984,5337,0.933857973,1065,519,4.1796,2.8396,644.0208999999996
213,2.8361,7291.7778,3.7844,1.0315,4981,5115,0.973802542,1062,521,4.1788,2.8326,646.8534999999996
214,2.8246,7292.0,3.824,1.0335,4906,5382,0.911557042,1064,482,4.1774,2.8216,649.6750999999996
